Time(ms),Pos(mm),Raw_ADC,Raw_Dig,Gray_True,Gray_ADC,Gray_Dig
73,0.00,591,972,255.00,155.00,220.00
92,0.53,526,972,254.39,227.00,220.00
112,1.32,526,980,253.48,227.00,220.00
132,2.37,525,972,252.26,228.00,220.00
152,3.68,523,972,250.73,230.00,220.00
172,5.26,523,968,248.90,230.00,221.00
192,7.10,523,960,246.77,230.00,221.00
213,8.94,531,960,244.63,221.00,221.00
233,10.92,524,960,242.35,229.00,221.00
253,12.89,533,960,240.06,219.00,221.00
273,14.86,524,972,237.77,229.00,220.00
293,16.83,524,968,235.49,229.00,221.00
313,18.68,527,968,233.35,226.00,221.00
333,20.78,532,964,230.91,220.00,221.00
354,22.75,531,972,228.63,221.00,220.00
373,24.99,536,988,226.04,216.00,220.00
393,27.09,542,1016,223.60,209.00,218.00
413,29.20,533,1056,221.16,219.00,217.00
433,31.04,539,1056,219.02,212.00,217.00
453,33.14,543,1080,216.58,208.00,215.00
473,35.25,551,1092,214.14,199.00,215.00
494,37.35,548,1132,211.71,202.00,213.00
514,39.46,560,1132,209.27,189.00,213.00
534,41.43,563,1160,206.98,186.00,212.00
555,43.53,560,1164,204.54,189.00,212.00
574,45.51,561,1172,202.25,188.00,211.00
593,47.48,568,1204,199.97,180.00,210.00
614,49.71,579,1232,197.38,168.00,209.00
634,51.82,582,1284,194.94,165.00,206.00
654,53.92,575,1324,192.50,172.00,204.00
674,56.03,580,1356,190.06,167.00,203.00
694,58.13,584,1392,187.62,162.00,201.00
714,60.24,592,1448,185.18,153.00,199.00
734,62.21,588,1484,182.89,158.00,197.00
754,64.31,592,1520,180.46,153.00,195.00
774,66.42,608,1580,178.02,136.00,193.00
794,68.52,599,1620,175.58,146.00,191.00
814,70.49,623,1680,173.29,119.00,188.00
834,72.60,606,1724,170.85,138.00,186.00
854,74.57,614,1760,168.56,129.00,184.00
874,76.68,610,1804,166.13,134.00,182.00
895,78.78,615,1848,163.69,128.00,180.00
915,80.75,619,1896,161.40,124.00,178.00
934,82.86,622,1940,158.96,120.00,176.00
955,84.83,642,2020,156.67,98.00,173.00
975,86.80,624,2076,154.39,118.00,170.00
994,88.64,643,2124,152.25,97.00,168.00
1014,90.75,643,2160,149.81,97.00,166.00
1035,92.85,633,2192,147.37,108.00,165.00
1055,94.96,647,2284,144.94,93.00,161.00
1074,97.06,637,2308,142.50,104.00,160.00
1095,99.17,641,2368,140.06,99.00,157.00
1115,101.27,639,2396,137.62,101.00,156.00
1135,103.38,644,2472,135.18,96.00,152.00
1155,105.48,650,2496,132.74,89.00,151.00
1175,107.58,652,2520,130.30,87.00,150.00
1196,109.69,645,2604,127.86,95.00,146.00
1215,111.66,659,2628,125.57,79.00,145.00
1236,113.77,646,2656,123.14,94.00,144.00
1255,115.87,647,2704,120.70,93.00,141.00
1275,117.97,668,2772,118.26,69.00,138.00
1295,119.95,651,2880,115.97,88.00,133.00
1315,122.18,657,2972,113.38,81.00,129.00
1336,124.16,671,3116,111.09,66.00,123.00
1356,126.13,683,3100,108.81,53.00,123.00
1375,128.23,657,2992,106.37,81.00,128.00
1395,130.34,660,3084,103.93,78.00,124.00
1416,132.31,665,3304,101.64,73.00,114.00
1435,134.41,667,3356,99.20,70.00,112.00
1456,136.52,660,3352,96.76,78.00,112.00
1475,138.49,662,3372,94.48,76.00,111.00
1496,140.60,667,3472,92.04,70.00,107.00
1516,142.70,689,3672,89.60,46.00,97.00
1537,144.80,669,3692,87.16,68.00,96.00
1556,146.91,689,3768,84.72,46.00,93.00
1576,149.01,681,3936,82.28,55.00,85.00
1597,150.99,684,4088,79.99,51.00,78.00
1616,153.09,676,4128,77.55,60.00,77.00
1637,155.19,689,4228,75.12,46.00,72.00
1656,157.30,681,4248,72.68,55.00,71.00
1677,159.40,689,4404,70.24,46.00,64.00
1697,161.51,680,4672,67.80,56.00,52.00
1717,163.35,700,4828,65.66,34.00,45.00
1737,165.45,691,4932,63.23,44.00,40.00
1757,167.43,696,5120,60.94,38.00,31.00
1777,169.40,684,5136,58.65,51.00,31.00
1797,171.37,684,5284,56.37,51.00,24.00
1818,173.48,696,5420,53.93,38.00,18.00
1839,175.58,691,5596,51.49,44.00,10.00
1858,177.42,698,5644,49.35,36.00,8.00
1879,179.53,689,5640,46.91,46.00,8.00
1898,181.50,696,5812,44.63,38.00,0.00
1919,183.60,699,5688,42.19,35.00,6.00
1938,185.57,691,5944,39.90,44.00,0.00
1958,187.68,691,5792,37.46,44.00,1.00
1978,189.65,709,5684,35.18,24.00,6.00
1998,191.76,690,6044,32.74,45.00,0.00
2018,193.86,688,5772,30.30,47.00,2.00
2038,195.96,692,5736,27.86,43.00,3.00
2058,197.81,705,5768,25.72,28.00,2.00
2078,200.04,702,5672,23.13,32.00,6.00
2099,202.01,689,6324,20.85,46.00,0.00
2119,203.86,690,6312,18.71,45.00,0.00
2138,205.83,691,6048,16.43,44.00,0.00
2158,207.80,690,5720,14.14,45.00,4.00
2179,210.04,700,6048,11.55,34.00,0.00
2198,212.14,692,6016,9.11,43.00,0.00
2219,214.25,690,5656,6.67,45.00,7.00
2238,216.22,690,5648,4.38,45.00,7.00
2258,218.19,697,5312,2.10,37.00,23.00
2277,220.16,680,5076,0.00,56.00,33.00
2298,222.27,706,5300,0.00,27.00,23.00
2318,224.37,688,5560,0.00,47.00,11.00
2338,226.48,685,5696,0.00,50.00,5.00
2358,228.45,697,5692,0.00,37.00,5.00
2378,230.55,698,5624,0.00,36.00,9.00
2398,232.53,703,5656,0.00,30.00,7.00
2418,234.63,702,5832,0.00,32.00,0.00
2438,236.74,691,5876,0.00,44.00,0.00
2458,238.84,698,6084,0.00,36.00,0.00
